# == pyFAI calibration ==
# Distance Sample to Detector: 1.19 m
# PONI: 1.553e-01, 6.140e-02 m
# Rotations: 0.000000 0.000000 0.000000 rad
# 
# == Fit2d calibration ==
# Distance Sample-beamCenter: 1190.000 mm
# Center: x=357.000, y=903.000 pix
# Tilt: 0.000 deg  TiltPlanRot: 0.000 deg
# 
# Detector Detector	 Spline= None	 PixelSize= 1.720e-04, 1.720e-04 m
#    Detector has a mask: False 
#    Detector has a dark current: False 
#    detector has a flat field: False 
# 
# Wavelength: 1.542e-09 m
# Mask applied: provided
# Dark current applied: False
# Flat field applied: False
# Polarization factor: None
# Normalization factor: 1.0
# --> C:\Anaconda2\lib\site-packages\pySAXS\saxsdata\2018-01-31-OT_0_13459.edf.rgr
#       q_nm^-1              I           sigma 
  5.027592e-03    4.087630e+04   1.177173e+02
  5.590174e-03    3.357557e+04   4.810260e+01
  6.152757e-03    2.506728e+04   2.809014e+01
  6.715339e-03    1.955028e+04   2.010438e+01
  7.277922e-03    1.436799e+04   1.550934e+01
  7.840504e-03    1.047055e+04   1.254410e+01
  8.403087e-03    7.812274e+03   1.034619e+01
  8.965669e-03    5.930052e+03   8.670018e+00
  9.528251e-03    4.558954e+03   7.338563e+00
  1.009083e-02    3.570107e+03   6.284015e+00
  1.065342e-02    2.840062e+03   5.446403e+00
  1.121600e-02    2.279466e+03   4.746529e+00
  1.177858e-02    1.856161e+03   4.166452e+00
  1.234116e-02    1.525388e+03   3.675422e+00
  1.290375e-02    1.266652e+03   3.260927e+00
  1.346633e-02    1.058036e+03   2.911268e+00
  1.402891e-02    8.899852e+02   2.611973e+00
  1.459149e-02    7.566062e+02   2.362174e+00
  1.515408e-02    6.501459e+02   2.144839e+00
  1.571666e-02    5.545567e+02   1.942002e+00
  1.627924e-02    4.778921e+02   1.768733e+00
  1.684182e-02    4.145397e+02   1.615352e+00
  1.740441e-02    3.621810e+02   1.482112e+00
  1.796699e-02    3.176155e+02   1.365963e+00
  1.852957e-02    2.800299e+02   1.261307e+00
  1.909215e-02    2.480833e+02   1.168273e+00
  1.965474e-02    2.209873e+02   1.085699e+00
  2.021732e-02    1.982118e+02   1.012877e+00
  2.077990e-02    1.770295e+02   9.433427e-01
  2.134248e-02    1.581228e+02   8.782263e-01
  2.190507e-02    1.439967e+02   8.273538e-01
  2.246765e-02    1.297551e+02   7.749212e-01
  2.303023e-02    1.167543e+02   7.255097e-01
  2.359281e-02    1.059123e+02   6.822474e-01
  2.415540e-02    9.623769e+01   6.423132e-01
  2.471798e-02    8.842842e+01   6.082942e-01
  2.528056e-02    8.133441e+01   5.765403e-01
  2.584314e-02    7.460537e+01   5.454687e-01
  2.640573e-02    6.878665e+01   5.181555e-01
  2.696831e-02    6.361251e+01   4.928791e-01
  2.753089e-02    5.829852e+01   4.667714e-01
  2.809347e-02    5.349273e+01   4.423993e-01
  2.865605e-02    4.987291e+01   4.227888e-01
  2.921864e-02    4.676740e+01   4.052528e-01
  2.978122e-02    4.293393e+01   3.845987e-01
  3.034380e-02    4.020074e+01   3.687278e-01
  3.090638e-02    3.760159e+01   3.604511e-01
  3.146897e-02    3.460084e+01   3.488615e-01
  3.203155e-02    3.234193e+01   3.381876e-01
  3.259413e-02    3.031848e+01   3.276089e-01
  3.315671e-02    2.861119e+01   3.180474e-01
  3.371930e-02    2.699135e+01   3.086978e-01
  3.428188e-02    2.548366e+01   2.995492e-01
  3.484446e-02    2.377156e+01   2.885122e-01
  3.540704e-02    2.233373e+01   2.786403e-01
  3.596963e-02    2.130639e+01   2.713635e-01
  3.653221e-02    1.991584e+01   2.615811e-01
  3.709479e-02    1.872200e+01   2.527614e-01
  3.765737e-02    1.782318e+01   2.460087e-01
  3.821996e-02    1.707673e+01   2.400475e-01
  3.878254e-02    1.619268e+01   2.328640e-01
  3.934512e-02    1.535061e+01   2.258895e-01
  3.990770e-02    1.437921e+01   2.175908e-01
  4.047029e-02    1.378842e+01   2.122836e-01
  4.103287e-02    1.335647e+01   2.081115e-01
  4.159545e-02    1.287539e+01   2.035982e-01
  4.215803e-02    1.208289e+01   1.965971e-01
  4.272062e-02    1.145205e+01   1.907424e-01
  4.328320e-02    1.097491e+01   1.859593e-01
  4.384578e-02    1.042071e+01   1.804194e-01
  4.440836e-02    1.011059e+01   1.732439e-01
  4.497095e-02    9.476237e+00   1.637972e-01
  4.553353e-02    9.103742e+00   1.580379e-01
  4.609611e-02    8.898560e+00   1.543555e-01
  4.665869e-02    8.241581e+00   1.468172e-01
  4.722128e-02    7.751397e+00   1.408390e-01
  4.778386e-02    7.522141e+00   1.373596e-01
  4.834644e-02    7.292194e+00   1.339822e-01
  4.890902e-02    7.158190e+00   1.314815e-01
  4.947161e-02    6.749729e+00   1.266001e-01
  5.003419e-02    6.568721e+00   1.239078e-01
  5.059677e-02    6.374117e+00   1.210710e-01
  5.115935e-02    5.985379e+00   1.164370e-01
  5.172194e-02    5.938218e+00   1.151002e-01
  5.228452e-02    5.748929e+00   1.124250e-01
  5.284710e-02    5.554631e+00   1.097170e-01
  5.340968e-02    5.509783e+00   1.085110e-01
  5.397227e-02    5.106169e+00   1.037406e-01
  5.453485e-02    5.050566e+00   1.025078e-01
  5.509743e-02    4.749575e+00   9.874511e-02
  5.566001e-02    4.624221e+00   9.680604e-02
  5.622259e-02    4.498997e+00   9.485269e-02
  5.678518e-02    4.490250e+00   9.416897e-02
  5.734776e-02    4.403458e+00   9.275360e-02
  5.791034e-02    4.173189e+00   8.971406e-02
  5.847292e-02    3.990073e+00   8.719460e-02
  5.903551e-02    3.937933e+00   8.611608e-02
  5.959809e-02    3.833085e+00   8.447532e-02
  6.016067e-02    3.821059e+00   8.387295e-02
  6.072325e-02    3.779323e+00   8.293612e-02
  6.128584e-02    3.577657e+00   8.026311e-02
  6.184842e-02    3.576404e+00   7.985245e-02
  6.241100e-02    3.450561e+00   7.800000e-02
  6.297358e-02    3.341381e+00   7.632980e-02
  6.353617e-02    3.198734e+00   7.429329e-02
  6.409875e-02    3.138818e+00   7.321656e-02
  6.466133e-02    3.085205e+00   7.222586e-02
  6.522391e-02    3.028383e+00   7.120242e-02
  6.578650e-02    2.957518e+00   7.004310e-02
  6.634908e-02    2.923306e+00   6.930002e-02
  6.691166e-02    2.927469e+00   6.900852e-02
  6.747424e-02    2.835259e+00   6.754647e-02
  6.803683e-02    2.844251e+00   6.733690e-02
  6.859941e-02    2.709497e+00   6.540456e-02
  6.916199e-02    2.669385e+00   6.463222e-02
  6.972457e-02    2.588037e+00   6.335242e-02
  7.028716e-02    2.634979e+00   6.363704e-02
  7.084974e-02    2.625669e+00   6.324183e-02
  7.141232e-02    2.477744e+00   6.116293e-02
  7.197490e-02    2.370444e+00   5.952701e-02
  7.253749e-02    2.398441e+00   5.961337e-02
  7.310007e-02    2.465629e+00   6.020807e-02
  7.366265e-02    2.427498e+00   5.949059e-02
  7.422523e-02    2.322537e+00   5.794386e-02
  7.478782e-02    2.314151e+00   5.789663e-02
  7.535040e-02    2.338084e+00   5.889873e-02
  7.591298e-02    2.288799e+00   5.857725e-02
  7.647556e-02    2.202607e+00   5.761048e-02
  7.703815e-02    2.240192e+00   5.820755e-02
  7.760073e-02    2.254212e+00   5.861532e-02
  7.816331e-02    2.181738e+00   5.876438e-02
  7.872589e-02    2.215468e+00   5.992213e-02
  7.928848e-02    2.145904e+00   5.948863e-02
  7.985106e-02    2.040380e+00   5.842516e-02
  8.041364e-02    2.032906e+00   5.867624e-02
  8.097622e-02    2.017441e+00   5.859107e-02
  8.153881e-02    2.101308e+00   5.994067e-02
  8.210139e-02    2.123872e+00   6.040858e-02
  8.266397e-02    2.066718e+00   5.881406e-02
  8.322655e-02    2.029535e+00   5.747577e-02
  8.378913e-02    2.019362e+00   5.687747e-02
  8.435172e-02    2.031548e+00   5.668586e-02
  8.491430e-02    2.050190e+00   5.664736e-02
  8.547688e-02    2.068360e+00   5.663003e-02
  8.603946e-02    2.068487e+00   5.635955e-02
  8.660205e-02    2.061213e+00   5.602144e-02
  8.716463e-02    2.170094e+00   5.729840e-02
  8.772721e-02    2.148497e+00   5.689005e-02
  8.828979e-02    2.177205e+00   5.721001e-02
  8.885238e-02    2.275268e+00   5.848799e-02
  8.941496e-02    2.303138e+00   5.884720e-02
  8.997754e-02    2.391108e+00   5.993788e-02
  9.054012e-02    2.428855e+00   6.038034e-02
  9.110271e-02    2.529029e+00   6.159484e-02
  9.166529e-02    2.706398e+00   6.370211e-02
  9.222787e-02    2.793455e+00   6.469990e-02
  9.279045e-02    2.892155e+00   6.583569e-02
  9.335304e-02    3.096041e+00   6.809881e-02
  9.391562e-02    3.272465e+00   6.990219e-02
  9.447820e-02    3.479545e+00   7.192133e-02
  9.504078e-02    3.654706e+00   7.354313e-02
  9.560337e-02    3.996267e+00   7.674329e-02
  9.616595e-02    4.382455e+00   8.022190e-02
  9.672853e-02    4.760534e+00   8.343793e-02
  9.729111e-02    5.237857e+00   8.739044e-02
  9.785370e-02    5.785167e+00   9.166139e-02
  9.841628e-02    6.450332e+00   9.654526e-02
  9.897886e-02    7.269842e+00   1.022059e-01
  9.954144e-02    8.275430e+00   1.087069e-01
  1.001040e-01    9.456288e+00   1.158934e-01
  1.006666e-01    1.089236e+01   1.240679e-01
  1.012292e-01    1.238073e+01   1.319180e-01
  1.017918e-01    1.434756e+01   1.416446e-01
  1.023544e-01    1.655030e+01   1.517596e-01
  1.029169e-01    1.925975e+01   1.632760e-01
  1.034795e-01    2.214088e+01   1.746395e-01
  1.040421e-01    2.507848e+01   1.853026e-01
  1.046047e-01    2.790767e+01   1.949866e-01
  1.051673e-01    3.065862e+01   2.038634e-01
  1.057299e-01    3.312206e+01   2.115092e-01
  1.062924e-01    3.410012e+01   2.141827e-01
  1.068550e-01    3.438655e+01   2.146949e-01
  1.074176e-01    3.354220e+01   2.116466e-01
  1.079802e-01    3.113646e+01   2.035203e-01
  1.085428e-01    2.809490e+01   1.929004e-01
  1.091053e-01    2.479894e+01   1.806919e-01
  1.096679e-01    2.120688e+01   1.665783e-01
  1.102305e-01    1.790973e+01   1.526574e-01
  1.107931e-01    1.495868e+01   1.390851e-01
  1.113557e-01    1.250039e+01   1.267849e-01
  1.119183e-01    1.048901e+01   1.157995e-01
  1.124808e-01    8.776630e+00   1.056276e-01
  1.130434e-01    7.322630e+00   9.621008e-02
  1.136060e-01    6.249516e+00   8.863672e-02
  1.141686e-01    5.283695e+00   8.134333e-02
  1.147312e-01    4.634612e+00   7.605410e-02
  1.152938e-01    4.018693e+00   7.070906e-02
  1.158563e-01    3.568852e+00   6.652120e-02
  1.164189e-01    3.165859e+00   6.254594e-02
  1.169815e-01    2.809221e+00   5.882658e-02
  1.175441e-01    2.523294e+00   5.566238e-02
  1.181067e-01    2.317040e+00   5.324455e-02
  1.186692e-01    2.178103e+00   5.154105e-02
  1.192318e-01    1.956611e+00   4.877590e-02
  1.197944e-01    1.773807e+00   4.635386e-02
  1.203570e-01    1.687680e+00   4.513948e-02
  1.209196e-01    1.500629e+00   4.249621e-02
  1.214822e-01    1.431535e+00   4.144224e-02
  1.220447e-01    1.414999e+00   4.113404e-02
  1.226073e-01    1.356518e+00   4.021867e-02
  1.231699e-01    1.260405e+00   3.876535e-02
  1.237325e-01    1.203617e+00   3.786720e-02
  1.242951e-01    1.108835e+00   3.631323e-02
  1.248577e-01    1.038208e+00   3.509454e-02
  1.254202e-01    1.014116e+00   3.461436e-02
  1.259828e-01    9.922099e-01   3.416344e-02
  1.265454e-01    9.465536e-01   3.327804e-02
  1.271080e-01    8.783466e-01   3.196097e-02
  1.276706e-01    8.994505e-01   3.232838e-02
  1.282331e-01    8.709415e-01   3.180305e-02
  1.287957e-01    8.147587e-01   3.072747e-02
  1.293583e-01    7.765236e-01   2.995979e-02
  1.299209e-01    7.348424e-01   2.909129e-02
  1.304835e-01    7.561917e-01   2.945154e-02
  1.310461e-01    7.008257e-01   2.827800e-02
  1.316086e-01    6.912347e-01   2.799201e-02
  1.321712e-01    6.707117e-01   2.752090e-02
  1.327338e-01    6.629682e-01   2.731469e-02
  1.332964e-01    6.446790e-01   2.689345e-02
  1.338590e-01    6.282404e-01   2.650810e-02
  1.344216e-01    6.082647e-01   2.604407e-02
  1.349841e-01    5.741537e-01   2.526298e-02
  1.355467e-01    5.767730e-01   2.528187e-02
  1.361093e-01    5.760644e-01   2.522753e-02
  1.366719e-01    5.421753e-01   2.443641e-02
  1.372345e-01    5.246159e-01   2.400118e-02
  1.377971e-01    5.508769e-01   2.455714e-02
  1.383596e-01    5.465276e-01   2.442289e-02
  1.389222e-01    4.986856e-01   2.329467e-02
  1.394848e-01    5.112270e-01   2.354991e-02
  1.400474e-01    5.071863e-01   2.342103e-02
  1.406100e-01    5.221132e-01   2.372628e-02
  1.411725e-01    5.024517e-01   2.324065e-02
  1.417351e-01    4.861536e-01   2.282718e-02
  1.422977e-01    4.589932e-01   2.214771e-02
  1.428603e-01    4.792484e-01   2.259768e-02
  1.434229e-01    4.836664e-01   2.267641e-02
  1.439855e-01    4.862224e-01   2.273762e-02
  1.445480e-01    4.375242e-01   2.155706e-02
  1.451106e-01    4.168255e-01   2.101807e-02
  1.456732e-01    4.003721e-01   2.057484e-02
  1.462358e-01    4.134177e-01   2.088332e-02
  1.467984e-01    4.329184e-01   2.136911e-02
  1.473610e-01    4.251281e-01   2.115336e-02
  1.479235e-01    4.206436e-01   2.099630e-02
  1.484861e-01    4.035398e-01   2.051415e-02
  1.490487e-01    4.080388e-01   2.058973e-02
  1.496113e-01    3.923243e-01   2.014799e-02
  1.501739e-01    3.746410e-01   1.963945e-02
  1.507364e-01    3.591151e-01   1.916650e-02
  1.512990e-01    3.777349e-01   1.962989e-02
  1.518616e-01    3.786897e-01   1.965828e-02
  1.524242e-01    3.617036e-01   1.920156e-02
  1.529868e-01    3.521742e-01   1.892698e-02
  1.535494e-01    3.627818e-01   1.918263e-02
  1.541119e-01    3.773256e-01   1.953333e-02
  1.546745e-01    3.570313e-01   1.896629e-02
  1.552371e-01    3.704640e-01   1.929597e-02
  1.557997e-01    3.736249e-01   1.964899e-02
  1.563623e-01    3.454668e-01   1.907025e-02
  1.569249e-01    3.555773e-01   1.947136e-02
  1.574874e-01    3.487576e-01   1.938240e-02
  1.580500e-01    3.526236e-01   1.957388e-02
  1.586126e-01    3.276259e-01   1.893719e-02
  1.591752e-01    3.313257e-01   1.910819e-02
  1.597378e-01    3.421050e-01   1.947651e-02
  1.603003e-01    3.551048e-01   1.989889e-02
  1.608629e-01    3.337258e-01   1.934115e-02
  1.614255e-01    3.408002e-01   1.959194e-02
  1.619881e-01    3.370391e-01   1.952940e-02
  1.625507e-01    3.245558e-01   1.920533e-02
  1.631133e-01    3.241866e-01   1.923343e-02
  1.636758e-01    3.273799e-01   1.936531e-02
  1.642384e-01    3.099816e-01   1.887850e-02
  1.648010e-01    3.191895e-01   1.919087e-02
  1.653636e-01    3.406033e-01   1.985707e-02
  1.659262e-01    3.259161e-01   1.945555e-02
  1.664888e-01    3.217082e-01   1.935928e-02
  1.670513e-01    3.313121e-01   1.967601e-02
  1.676139e-01    3.408890e-01   1.998581e-02
  1.681765e-01    3.408538e-01   2.001556e-02
  1.687391e-01    3.028924e-01   1.888953e-02
  1.693017e-01    3.021942e-01   1.855582e-02
  1.698642e-01    3.166427e-01   1.879114e-02
  1.704268e-01    3.186015e-01   1.871441e-02
  1.709894e-01    2.938244e-01   1.786256e-02
  1.715520e-01    2.980610e-01   1.788917e-02
  1.721146e-01    3.253641e-01   1.859148e-02
  1.726772e-01    2.988080e-01   1.770663e-02
  1.732397e-01    2.983732e-01   1.759958e-02
  1.738023e-01    2.892181e-01   1.724844e-02
  1.743649e-01    3.033255e-01   1.758761e-02
  1.749275e-01    2.908856e-01   1.715246e-02
  1.754901e-01    2.823221e-01   1.683087e-02
  1.760527e-01    3.077246e-01   1.751287e-02
  1.766152e-01    2.938260e-01   1.706985e-02
  1.771778e-01    3.175050e-01   1.772514e-02
  1.777404e-01    3.220538e-01   1.782845e-02
  1.783030e-01    2.703237e-01   1.630253e-02
  1.788656e-01    2.928302e-01   1.693283e-02
  1.794282e-01    2.860016e-01   1.669465e-02
  1.799907e-01    2.853644e-01   1.663400e-02
  1.805533e-01    2.930217e-01   1.680322e-02
  1.811159e-01    2.892838e-01   1.663794e-02
  1.816785e-01    2.825186e-01   1.640645e-02
  1.822411e-01    2.976237e-01   1.680565e-02
  1.828036e-01    2.915009e-01   1.660064e-02
  1.833662e-01    2.992855e-01   1.678800e-02
  1.839288e-01    3.081563e-01   1.700395e-02
  1.844914e-01    3.077678e-01   1.696081e-02
  1.850540e-01    2.972385e-01   1.665144e-02
  1.856166e-01    3.062399e-01   1.690207e-02
  1.861791e-01    3.006439e-01   1.673151e-02
  1.867417e-01    2.985792e-01   1.665463e-02
  1.873043e-01    2.954411e-01   1.655741e-02
  1.878669e-01    3.046920e-01   1.680125e-02
  1.884295e-01    3.229973e-01   1.727258e-02
  1.889921e-01    3.213758e-01   1.720098e-02
  1.895546e-01    3.277945e-01   1.734282e-02
  1.901172e-01    3.186371e-01   1.707005e-02
  1.906798e-01    3.224618e-01   1.714536e-02
  1.912424e-01    3.448980e-01   1.770306e-02
  1.918050e-01    3.323678e-01   1.734995e-02
  1.923675e-01    3.467617e-01   1.769500e-02
  1.929301e-01    3.459952e-01   1.764664e-02
  1.934927e-01    3.504884e-01   1.773306e-02
  1.940553e-01    3.391314e-01   1.741685e-02
  1.946179e-01    3.572351e-01   1.784714e-02
  1.951805e-01    3.737527e-01   1.822901e-02
  1.957430e-01    3.777290e-01   1.829687e-02
  1.963056e-01    3.692231e-01   1.806326e-02
  1.968682e-01    3.861671e-01   1.844524e-02
  1.974308e-01    4.224823e-01   1.926450e-02
  1.979934e-01    4.021990e-01   1.876743e-02
  1.985560e-01    4.328091e-01   1.943923e-02
  1.991185e-01    4.589023e-01   1.998917e-02
  1.996811e-01    4.500941e-01   1.976640e-02
  2.002437e-01    4.975405e-01   2.075316e-02
  2.008063e-01    5.470850e-01   2.172920e-02
  2.013689e-01    5.715288e-01   2.218033e-02
  2.019314e-01    5.976454e-01   2.264781e-02
  2.024940e-01    6.639954e-01   2.401923e-02
  2.030566e-01    7.271664e-01   2.548887e-02
  2.036192e-01    8.036990e-01   2.700947e-02
  2.041818e-01    9.116609e-01   2.896222e-02
  2.047444e-01    1.031204e+00   3.095802e-02
  2.053069e-01    1.154542e+00   3.282064e-02
  2.058695e-01    1.259549e+00   3.432802e-02
  2.064321e-01    1.359745e+00   3.567885e-02
  2.069947e-01    1.575111e+00   3.840897e-02
  2.075573e-01    1.748827e+00   4.045681e-02
  2.081199e-01    2.009456e+00   4.338724e-02
  2.086824e-01    2.314846e+00   4.667417e-02
  2.092450e-01    2.584347e+00   4.941894e-02
  2.098076e-01    2.891830e+00   5.238825e-02
  2.103702e-01    3.256983e+00   5.570473e-02
  2.109328e-01    3.561550e+00   5.835527e-02
  2.114954e-01    3.935804e+00   6.144925e-02
  2.120579e-01    4.256034e+00   6.400475e-02
  2.126205e-01    4.677382e+00   6.720919e-02
  2.131831e-01    4.955680e+00   6.928397e-02
  2.137457e-01    5.196903e+00   7.105126e-02
  2.143083e-01    5.180500e+00   7.104342e-02
  2.148708e-01    4.965034e+00   6.963749e-02
  2.154334e-01    4.661162e+00   6.757087e-02
  2.159960e-01    4.318468e+00   6.511551e-02
  2.165586e-01    3.876194e+00   6.176658e-02
  2.171212e-01    3.491623e+00   5.864601e-02
  2.176838e-01    2.981867e+00   5.417995e-02
  2.182463e-01    2.575405e+00   5.034753e-02
  2.188089e-01    2.276176e+00   4.731791e-02
  2.193715e-01    1.918806e+00   4.343313e-02
  2.199341e-01    1.665766e+00   4.046048e-02
  2.204967e-01    1.422584e+00   3.737910e-02
  2.210593e-01    1.250205e+00   3.502903e-02
  2.216218e-01    1.112574e+00   3.303838e-02
  2.221844e-01    9.853469e-01   3.107977e-02
  2.227470e-01    8.726558e-01   2.923891e-02
  2.233096e-01    8.110655e-01   2.818147e-02
  2.238722e-01    7.220935e-01   2.657889e-02
  2.244347e-01    6.106935e-01   2.443459e-02
  2.249973e-01    5.868305e-01   2.394252e-02
  2.255599e-01    5.327591e-01   2.280496e-02
  2.261225e-01    5.319273e-01   2.277528e-02
  2.266851e-01    4.815623e-01   2.166526e-02
  2.272477e-01    4.233817e-01   2.030423e-02
  2.278102e-01    4.223187e-01   2.026986e-02
  2.283728e-01    4.074596e-01   1.990440e-02
  2.289354e-01    3.841787e-01   1.931765e-02
  2.294980e-01    3.551187e-01   1.856535e-02
  2.300606e-01    3.535504e-01   1.851536e-02
  2.306232e-01    3.543814e-01   1.853036e-02
  2.311857e-01    3.551713e-01   1.854160e-02
  2.317483e-01    3.237160e-01   1.769317e-02
  2.323109e-01    3.248917e-01   1.771977e-02
  2.328735e-01    3.060064e-01   1.718659e-02
  2.334361e-01    2.905796e-01   1.674048e-02
  2.339986e-01    2.904965e-01   1.673128e-02
  2.345612e-01    2.661327e-01   1.600617e-02
  2.351238e-01    2.710783e-01   1.614700e-02
  2.356864e-01    2.624190e-01   1.587799e-02
  2.362490e-01    2.707144e-01   1.612077e-02
  2.368116e-01    2.540405e-01   1.560892e-02
  2.373741e-01    2.393948e-01   1.514272e-02
  2.379367e-01    2.396082e-01   1.514323e-02
  2.384993e-01    2.452394e-01   1.531177e-02
  2.390619e-01    2.526368e-01   1.553195e-02
  2.396245e-01    2.415662e-01   1.518048e-02
  2.401871e-01    2.402880e-01   1.513290e-02
  2.407496e-01    2.537535e-01   1.554275e-02
  2.413122e-01    2.615014e-01   1.577057e-02
  2.418748e-01    2.502740e-01   1.541949e-02
  2.424374e-01    2.359958e-01   1.496595e-02
  2.430000e-01    2.189665e-01   1.442117e-02
  2.435626e-01    2.237670e-01   1.458502e-02
  2.441251e-01    2.279601e-01   1.472577e-02
  2.446877e-01    2.195566e-01   1.445161e-02
  2.452503e-01    2.189178e-01   1.442240e-02
  2.458129e-01    2.141499e-01   1.425124e-02
  2.463755e-01    2.071217e-01   1.399575e-02
  2.469380e-01    1.971781e-01   1.363423e-02
  2.475006e-01    2.203650e-01   1.439265e-02
  2.480632e-01    2.194226e-01   1.435448e-02
  2.486258e-01    2.312631e-01   1.472826e-02
  2.491884e-01    2.118781e-01   1.408870e-02
  2.497510e-01    2.103601e-01   1.403236e-02
  2.503135e-01    2.129256e-01   1.410982e-02
  2.508761e-01    2.044137e-01   1.381631e-02
  2.514387e-01    2.042430e-01   1.380263e-02
  2.520013e-01    2.059660e-01   1.385342e-02
  2.525639e-01    2.020081e-01   1.371207e-02
  2.531265e-01    2.118505e-01   1.403299e-02
  2.536890e-01    1.996860e-01   1.361694e-02
  2.542516e-01    2.080813e-01   1.389275e-02
  2.548142e-01    2.160078e-01   1.414653e-02
  2.553768e-01    2.020880e-01   1.367462e-02
  2.559394e-01    2.071400e-01   1.382789e-02
  2.565019e-01    1.925270e-01   1.331181e-02
  2.570645e-01    1.772444e-01   1.275437e-02
  2.576271e-01    1.741273e-01   1.263143e-02
  2.581897e-01    1.669075e-01   1.235766e-02
  2.587523e-01    1.774812e-01   1.273324e-02
  2.593149e-01    1.992559e-01   1.348703e-02
  2.598774e-01    2.131971e-01   1.394276e-02
  2.604400e-01    2.104197e-01   1.384189e-02
  2.610026e-01    1.989235e-01   1.345150e-02
  2.615652e-01    1.919070e-01   1.320560e-02
  2.621278e-01    1.907913e-01   1.315774e-02
  2.626904e-01    1.910827e-01   1.316341e-02
  2.632529e-01    1.918768e-01   1.318081e-02
  2.638155e-01    1.844042e-01   1.291300e-02
  2.643781e-01    1.931794e-01   1.321772e-02
  2.649407e-01    1.870192e-01   1.300513e-02
  2.655033e-01    1.928122e-01   1.320136e-02
  2.660658e-01    1.900693e-01   1.310755e-02
  2.666284e-01    1.954146e-01   1.329645e-02
  2.671910e-01    1.877233e-01   1.303440e-02
  2.677536e-01    1.894464e-01   1.309295e-02
  2.683162e-01    2.126194e-01   1.387287e-02
  2.688788e-01    2.034032e-01   1.357448e-02
  2.694413e-01    2.030051e-01   1.356135e-02
  2.700039e-01    2.084050e-01   1.374077e-02
  2.705665e-01    1.949065e-01   1.329063e-02
  2.711291e-01    2.084852e-01   1.374985e-02
  2.716917e-01    2.131167e-01   1.390105e-02
  2.722543e-01    1.849358e-01   1.295240e-02
  2.728168e-01    1.942460e-01   1.327775e-02
  2.733794e-01    2.079005e-01   1.373598e-02
  2.739420e-01    1.983967e-01   1.341795e-02
  2.745046e-01    1.977859e-01   1.339945e-02
  2.750672e-01    1.964536e-01   1.335771e-02
  2.756298e-01    1.860003e-01   1.299566e-02
  2.761923e-01    1.752269e-01   1.261513e-02
  2.767549e-01    1.804369e-01   1.281576e-02
  2.773175e-01    1.879238e-01   1.309905e-02
  2.778801e-01    1.890589e-01   1.314236e-02
  2.784427e-01    1.897947e-01   1.316940e-02
  2.790052e-01    1.847638e-01   1.299260e-02
  2.795678e-01    2.066023e-01   1.373961e-02
  2.801304e-01    2.007134e-01   1.378233e-02
  2.806930e-01    1.984754e-01   1.389418e-02
  2.812556e-01    1.945214e-01   1.389114e-02
  2.818182e-01    1.801478e-01   1.348708e-02
  2.823807e-01    1.824278e-01   1.367585e-02
  2.829433e-01    1.855250e-01   1.388601e-02
  2.835059e-01    1.785450e-01   1.370803e-02
  2.840685e-01    1.953880e-01   1.442655e-02
  2.846311e-01    1.970782e-01   1.457611e-02
  2.851937e-01    1.960022e-01   1.461299e-02
  2.857562e-01    1.817127e-01   1.414201e-02
  2.863188e-01    1.863786e-01   1.439954e-02
  2.868814e-01    2.152948e-01   1.555172e-02
  2.874440e-01    2.296182e-01   1.613638e-02
  2.880066e-01    2.368125e-01   1.646231e-02
  2.885691e-01    1.961394e-01   1.505007e-02
  2.891317e-01    2.056967e-01   1.548656e-02
  2.896943e-01    2.049477e-01   1.551399e-02
  2.902569e-01    2.029077e-01   1.546905e-02
  2.908195e-01    2.201527e-01   1.614530e-02
  2.913821e-01    2.022373e-01   1.550933e-02
  2.919446e-01    2.082475e-01   1.578824e-02
  2.925072e-01    2.122458e-01   1.600028e-02
  2.930698e-01    2.072174e-01   1.586144e-02
  2.936324e-01    1.867135e-01   1.473384e-02
  2.941950e-01    2.046410e-01   1.520912e-02
  2.947576e-01    2.096131e-01   1.526079e-02
  2.953201e-01    2.085267e-01   1.512380e-02
  2.958827e-01    2.186178e-01   1.540682e-02
  2.964453e-01    2.198220e-01   1.538293e-02
  2.970079e-01    2.301934e-01   1.569091e-02
  2.975705e-01    2.227426e-01   1.538584e-02
  2.981330e-01    2.321163e-01   1.566051e-02
  2.986956e-01    2.234278e-01   1.532539e-02
  2.992582e-01    2.450626e-01   1.602032e-02
  2.998208e-01    2.348070e-01   1.565686e-02
  3.003834e-01    2.375331e-01   1.572360e-02
  3.009460e-01    2.351048e-01   1.562154e-02
  3.015085e-01    2.333471e-01   1.554483e-02
  3.020711e-01    2.329447e-01   1.551237e-02
  3.026337e-01    2.469529e-01   1.596295e-02
  3.031963e-01    2.806341e-01   1.703427e-02
  3.037589e-01    2.764727e-01   1.692500e-02
  3.043215e-01    2.938316e-01   1.746508e-02
  3.048840e-01    3.154385e-01   1.809922e-02
  3.054466e-01    3.364642e-01   1.867850e-02
  3.060092e-01    3.462188e-01   1.893258e-02
  3.065718e-01    3.853129e-01   1.995969e-02
  3.071344e-01    3.861808e-01   1.997864e-02
  3.076970e-01    4.069696e-01   2.049724e-02
  3.082595e-01    4.557237e-01   2.167712e-02
  3.088221e-01    4.824529e-01   2.229082e-02
  3.093847e-01    5.207711e-01   2.314674e-02
  3.099473e-01    5.957616e-01   2.474569e-02
  3.105099e-01    6.346506e-01   2.552655e-02
  3.110724e-01    7.034311e-01   2.686743e-02
  3.116350e-01    7.759805e-01   2.821299e-02
  3.121976e-01    8.164718e-01   2.892585e-02
  3.127602e-01    9.450564e-01   3.110901e-02
  3.133228e-01    1.033209e+00   3.251773e-02
  3.138854e-01    1.095161e+00   3.346369e-02
  3.144479e-01    1.182837e+00   3.476140e-02
  3.150105e-01    1.301379e+00   3.645797e-02
  3.155731e-01    1.451099e+00   3.849381e-02
  3.161357e-01    1.580024e+00   4.015256e-02
  3.166983e-01    1.748337e+00   4.222569e-02
  3.172609e-01    1.887712e+00   4.386146e-02
  3.178234e-01    2.009455e+00   4.524211e-02
  3.183860e-01    2.151429e+00   4.679320e-02
  3.189486e-01    2.262911e+00   4.797643e-02
  3.195112e-01    2.375645e+00   4.914121e-02
  3.200738e-01    2.557327e+00   5.099851e-02
  3.206363e-01    2.727726e+00   5.263960e-02
  3.211989e-01    2.698774e+00   5.230558e-02
  3.217615e-01    2.676916e+00   5.204034e-02
  3.223241e-01    2.615059e+00   5.138279e-02
  3.228867e-01    2.458541e+00   4.976522e-02
  3.234493e-01    2.258752e+00   4.765079e-02
  3.240118e-01    2.028899e+00   4.511475e-02
  3.245744e-01    1.804607e+00   4.250576e-02
  3.251370e-01    1.556898e+00   3.943975e-02
  3.256996e-01    1.350312e+00   3.669323e-02
  3.262622e-01    1.203889e+00   3.461426e-02
  3.268248e-01    1.055930e+00   3.238707e-02
  3.273873e-01    9.344059e-01   3.043546e-02
  3.279499e-01    7.836207e-01   2.784386e-02
  3.285125e-01    6.797608e-01   2.591469e-02
  3.290751e-01    6.054109e-01   2.444808e-02
  3.296377e-01    5.460997e-01   2.322321e-02
  3.302002e-01    5.010305e-01   2.224101e-02
  3.307628e-01    5.003560e-01   2.223022e-02
  3.313254e-01    4.546474e-01   2.121169e-02
  3.318880e-01    4.143606e-01   2.026583e-02
  3.324506e-01    3.816672e-01   1.945889e-02
  3.330132e-01    3.665090e-01   1.906690e-02
  3.335757e-01    3.307814e-01   1.810399e-02
  3.341383e-01    3.032904e-01   1.731953e-02
  3.347009e-01    2.667063e-01   1.622641e-02
  3.352635e-01    2.986635e-01   1.714705e-02
  3.358261e-01    2.903158e-01   1.690103e-02
  3.363887e-01    2.777444e-01   1.652774e-02
  3.369512e-01    2.586630e-01   1.594626e-02
  3.375138e-01    2.564503e-01   1.587529e-02
  3.380764e-01    2.265575e-01   1.491902e-02
  3.386390e-01    2.264404e-01   1.491911e-02
  3.392016e-01    2.276667e-01   1.497854e-02
  3.397641e-01    2.398501e-01   1.539056e-02
  3.403267e-01    2.158881e-01   1.460972e-02
  3.408893e-01    2.118930e-01   1.447815e-02
  3.414519e-01    2.068867e-01   1.430608e-02
  3.420145e-01    1.935737e-01   1.382702e-02
  3.425771e-01    1.974180e-01   1.395668e-02
  3.431396e-01    2.180743e-01   1.465241e-02
  3.437022e-01    2.047492e-01   1.421245e-02
  3.442648e-01    1.758203e-01   1.318568e-02
  3.448274e-01    1.954752e-01   1.390561e-02
  3.453900e-01    2.020136e-01   1.412124e-02
  3.459526e-01    1.903699e-01   1.370092e-02
  3.465151e-01    1.937049e-01   1.380505e-02
  3.470777e-01    1.946127e-01   1.383170e-02
  3.476403e-01    2.038631e-01   1.414472e-02
  3.482029e-01    1.985323e-01   1.394840e-02
  3.487655e-01    1.906843e-01   1.365654e-02
  3.493281e-01    1.683400e-01   1.282313e-02
  3.498906e-01    1.866727e-01   1.349571e-02
  3.504532e-01    1.859839e-01   1.345770e-02
  3.510158e-01    1.643435e-01   1.264238e-02
  3.515784e-01    1.754713e-01   1.304914e-02
  3.521410e-01    1.865376e-01   1.345160e-02
  3.527035e-01    1.946137e-01   1.372286e-02
  3.532661e-01    1.899021e-01   1.354933e-02
  3.538287e-01    1.847035e-01   1.334660e-02
  3.543913e-01    1.879651e-01   1.345903e-02
  3.549539e-01    1.821279e-01   1.323752e-02
  3.555165e-01    1.665808e-01   1.264778e-02
  3.560790e-01    1.751219e-01   1.296017e-02
  3.566416e-01    1.794372e-01   1.310770e-02
  3.572042e-01    1.724119e-01   1.285535e-02
  3.577668e-01    1.796815e-01   1.312059e-02
  3.583294e-01    1.680076e-01   1.269387e-02
  3.588920e-01    1.480133e-01   1.191228e-02
  3.594545e-01    1.655728e-01   1.260267e-02
  3.600171e-01    1.693941e-01   1.275310e-02
  3.605797e-01    1.681613e-01   1.270765e-02
  3.611423e-01    1.605206e-01   1.244069e-02
  3.617049e-01    1.773800e-01   1.308690e-02
  3.622674e-01    1.799029e-01   1.319001e-02
  3.628300e-01    1.810833e-01   1.323792e-02
  3.633926e-01    1.596404e-01   1.242243e-02
  3.639552e-01    1.628965e-01   1.254371e-02
  3.645178e-01    1.659109e-01   1.264044e-02
  3.650804e-01    1.631029e-01   1.252416e-02
  3.656429e-01    1.637241e-01   1.254825e-02
  3.662055e-01    1.782186e-01   1.309094e-02
  3.667681e-01    1.779302e-01   1.308486e-02
  3.673307e-01    1.720226e-01   1.286345e-02
  3.678933e-01    1.629324e-01   1.252492e-02
  3.684559e-01    1.664806e-01   1.266215e-02
  3.690184e-01    1.819335e-01   1.324461e-02
  3.695810e-01    1.701892e-01   1.283144e-02
  3.701436e-01    1.626209e-01   1.254971e-02
  3.707062e-01    1.783655e-01   1.315415e-02
  3.712688e-01    1.776993e-01   1.313315e-02
  3.718313e-01    1.772430e-01   1.310840e-02
  3.723939e-01    1.990666e-01   1.388726e-02
  3.729565e-01    2.013216e-01   1.394496e-02
  3.735191e-01    1.812831e-01   1.322364e-02
  3.740817e-01    1.807688e-01   1.321055e-02
  3.746443e-01    1.949751e-01   1.371557e-02
  3.752068e-01    1.872715e-01   1.344746e-02
  3.757694e-01    1.834351e-01   1.331666e-02
  3.763320e-01    1.920276e-01   1.363425e-02
  3.768946e-01    1.985564e-01   1.388368e-02
  3.774572e-01    1.990372e-01   1.391516e-02
  3.780198e-01    1.982568e-01   1.390920e-02
  3.785823e-01    1.919328e-01   1.371937e-02
  3.791449e-01    1.757291e-01   1.315835e-02
  3.797075e-01    1.851566e-01   1.353001e-02
  3.802701e-01    2.100333e-01   1.442799e-02
  3.808327e-01    2.021849e-01   1.414997e-02
  3.813953e-01    2.045618e-01   1.421592e-02
  3.819578e-01    1.979333e-01   1.396088e-02
  3.825204e-01    2.099574e-01   1.434579e-02
  3.830830e-01    2.054487e-01   1.417425e-02
  3.836456e-01    2.124975e-01   1.440469e-02
  3.842082e-01    2.280723e-01   1.491639e-02
  3.847707e-01    1.999167e-01   1.397663e-02
  3.853333e-01    2.007432e-01   1.401928e-02
  3.858959e-01    2.086956e-01   1.432235e-02
  3.864585e-01    1.999250e-01   1.405327e-02
  3.870211e-01    2.013204e-01   1.411660e-02
  3.875837e-01    2.011684e-01   1.412653e-02
  3.881462e-01    1.970062e-01   1.398547e-02
  3.887088e-01    2.042410e-01   1.424214e-02
  3.892714e-01    2.081563e-01   1.436651e-02
  3.898340e-01    2.060454e-01   1.427610e-02
  3.903966e-01    2.123604e-01   1.449475e-02
  3.909592e-01    2.101456e-01   1.442444e-02
  3.915217e-01    2.122130e-01   1.449867e-02
  3.920843e-01    2.290197e-01   1.506819e-02
  3.926469e-01    2.362376e-01   1.532556e-02
  3.932095e-01    2.457598e-01   1.566070e-02
  3.937721e-01    2.125592e-01   1.457928e-02
  3.943346e-01    2.323511e-01   1.525319e-02
  3.948972e-01    2.395755e-01   1.549409e-02
  3.954598e-01    2.177698e-01   1.477014e-02
  3.960224e-01    2.292187e-01   1.514675e-02
  3.965850e-01    2.258002e-01   1.501363e-02
  3.971476e-01    2.284550e-01   1.508963e-02
  3.977101e-01    2.426921e-01   1.555646e-02
  3.982727e-01    2.407942e-01   1.550055e-02
  3.988353e-01    2.211254e-01   1.485793e-02
  3.993979e-01    2.294710e-01   1.513987e-02
  3.999605e-01    2.218858e-01   1.489267e-02
  4.005231e-01    2.325068e-01   1.524767e-02
  4.010856e-01    2.218299e-01   1.489797e-02
  4.016482e-01    2.255039e-01   1.502428e-02
  4.022108e-01    2.539615e-01   1.594754e-02
  4.027734e-01    2.261318e-01   1.505310e-02
  4.033360e-01    2.271573e-01   1.509054e-02
  4.038985e-01    2.305179e-01   1.549876e-02
  4.044611e-01    2.296435e-01   1.585244e-02
  4.050237e-01    2.400701e-01   1.645717e-02
  4.055863e-01    2.285445e-01   1.626011e-02
  4.061489e-01    2.184905e-01   1.607541e-02
  4.067115e-01    2.329914e-01   1.677031e-02
  4.072740e-01    2.352490e-01   1.701029e-02
  4.078366e-01    2.332226e-01   1.708891e-02
  4.083992e-01    2.420509e-01   1.755884e-02
  4.089618e-01    2.534661e-01   1.811504e-02
  4.095244e-01    2.558635e-01   1.834715e-02
  4.100870e-01    2.560811e-01   1.849630e-02
  4.106495e-01    2.530673e-01   1.850185e-02
  4.112121e-01    2.583678e-01   1.876881e-02
  4.117747e-01    2.689854e-01   1.922532e-02
  4.123373e-01    2.480958e-01   1.857264e-02
  4.128999e-01    2.653664e-01   1.934129e-02
  4.134625e-01    2.553583e-01   1.910024e-02
  4.140250e-01    2.779053e-01   2.006160e-02
  4.145876e-01    3.060760e-01   2.119206e-02
  4.151502e-01    3.209810e-01   2.184412e-02
  4.157128e-01    3.370954e-01   2.253430e-02
  4.162754e-01    3.540788e-01   2.326294e-02
  4.168379e-01    3.551358e-01   2.347328e-02
  4.174005e-01    3.627705e-01   2.300844e-02
  4.179631e-01    3.814049e-01   2.309972e-02
  4.185257e-01    4.283862e-01   2.419416e-02
  4.190883e-01    4.611458e-01   2.490497e-02
  4.196509e-01    4.446076e-01   2.430526e-02
  4.202134e-01    4.609479e-01   2.461990e-02
  4.207760e-01    4.840570e-01   2.512565e-02
  4.213386e-01    5.177099e-01   2.589572e-02
  4.219012e-01    5.449319e-01   2.649529e-02
  4.224638e-01    5.913025e-01   2.753282e-02
  4.230264e-01    6.059241e-01   2.779913e-02
  4.235889e-01    6.220179e-01   2.812220e-02
  4.241515e-01    6.549398e-01   2.889036e-02
  4.247141e-01    6.880785e-01   2.966691e-02
  4.252767e-01    7.345191e-01   3.065818e-02
  4.258393e-01    7.816612e-01   3.159163e-02
  4.264018e-01    8.047492e-01   3.202241e-02
  4.269644e-01    8.470267e-01   3.282422e-02
  4.275270e-01    8.802999e-01   3.343789e-02
  4.280896e-01    9.411700e-01   3.453437e-02
  4.286522e-01    8.936888e-01   3.362974e-02
  4.292148e-01    9.067317e-01   3.385811e-02
  4.297773e-01    9.331701e-01   3.433153e-02
  4.303399e-01    8.195114e-01   3.216113e-02
  4.309025e-01    7.920135e-01   3.159862e-02
  4.314651e-01    7.231780e-01   3.017676e-02
  4.320277e-01    6.432844e-01   2.843248e-02
  4.325903e-01    5.969197e-01   2.733324e-02
  4.331528e-01    5.306332e-01   2.573794e-02
  4.337154e-01    4.946879e-01   2.483817e-02
  4.342780e-01    4.489415e-01   2.364209e-02
  4.348406e-01    3.772659e-01   2.164233e-02
  4.354032e-01    3.536094e-01   2.091130e-02
  4.359657e-01    3.389876e-01   2.042543e-02
  4.365283e-01    2.945766e-01   1.898533e-02
  4.370909e-01    2.721214e-01   1.818451e-02
  4.376535e-01    2.594705e-01   1.771431e-02
  4.382161e-01    2.327942e-01   1.677529e-02
  4.387787e-01    2.307808e-01   1.670463e-02
  4.393412e-01    2.070573e-01   1.582397e-02
  4.399038e-01    1.991074e-01   1.551531e-02
  4.404664e-01    2.066762e-01   1.580570e-02
  4.410290e-01    2.052674e-01   1.575380e-02
  4.415916e-01    1.926433e-01   1.526407e-02
  4.421542e-01    1.753046e-01   1.456292e-02
  4.427167e-01    1.935210e-01   1.529855e-02
  4.432793e-01    1.857310e-01   1.498966e-02
  4.438419e-01    1.758280e-01   1.458534e-02
  4.444045e-01    1.542551e-01   1.366632e-02
  4.449671e-01    1.505634e-01   1.350265e-02
  4.455297e-01    1.702381e-01   1.436099e-02
  4.460922e-01    1.567303e-01   1.378001e-02
  4.466548e-01    1.485691e-01   1.341615e-02
  4.472174e-01    1.416966e-01   1.310610e-02
  4.477800e-01    1.584876e-01   1.388281e-02
  4.483426e-01    1.729913e-01   1.453542e-02
  4.489051e-01    1.616285e-01   1.406147e-02
  4.494677e-01    1.526340e-01   1.367523e-02
  4.500303e-01    1.524350e-01   1.369183e-02
  4.505929e-01    1.425988e-01   1.325858e-02
  4.511555e-01    1.520443e-01   1.369371e-02
  4.517181e-01    1.539930e-01   1.377398e-02
  4.522806e-01    1.609401e-01   1.408472e-02
  4.528432e-01    1.787353e-01   1.484523e-02
  4.534058e-01    1.461574e-01   1.342580e-02
  4.539684e-01    1.335839e-01   1.283678e-02
  4.545310e-01    1.398805e-01   1.313635e-02
  4.550936e-01    1.321424e-01   1.276927e-02
  4.556561e-01    1.482531e-01   1.352106e-02
  4.562187e-01    1.633570e-01   1.418882e-02
  4.567813e-01    1.529040e-01   1.372713e-02
  4.573439e-01    1.322996e-01   1.276794e-02
  4.579065e-01    1.521645e-01   1.369286e-02
  4.584690e-01    1.461560e-01   1.341848e-02
  4.590316e-01    1.302980e-01   1.266789e-02
  4.595942e-01    1.432750e-01   1.328267e-02
  4.601568e-01    1.377686e-01   1.302332e-02
  4.607194e-01    1.485317e-01   1.351946e-02
  4.612820e-01    1.468564e-01   1.344121e-02
  4.618445e-01    1.409763e-01   1.316545e-02
  4.624071e-01    1.522568e-01   1.367366e-02
  4.629697e-01    1.404707e-01   1.312961e-02
  4.635323e-01    1.216026e-01   1.221433e-02
  4.640949e-01    1.321787e-01   1.274441e-02
  4.646575e-01    1.233846e-01   1.232873e-02
  4.652200e-01    1.209413e-01   1.222107e-02
  4.657826e-01    1.308524e-01   1.272743e-02
  4.663452e-01    1.561835e-01   1.392176e-02
  4.669078e-01    1.420541e-01   1.329185e-02
  4.674704e-01    1.438349e-01   1.339087e-02
  4.680329e-01    1.381479e-01   1.314570e-02
  4.685955e-01    1.397247e-01   1.326255e-02
  4.691581e-01    1.414498e-01   1.337308e-02
  4.697207e-01    1.372792e-01   1.319076e-02
  4.702833e-01    1.296687e-01   1.283681e-02
  4.708459e-01    1.117353e-01   1.192345e-02
  4.714084e-01    1.176517e-01   1.224040e-02
  4.719710e-01    1.252725e-01   1.262279e-02
  4.725336e-01    1.254402e-01   1.262652e-02
  4.730962e-01    1.113155e-01   1.190615e-02
  4.736588e-01    1.185967e-01   1.230280e-02
  4.742214e-01    1.193874e-01   1.235661e-02
  4.747839e-01    1.267349e-01   1.274412e-02
  4.753465e-01    1.118295e-01   1.198440e-02
  4.759091e-01    1.087855e-01   1.183206e-02
  4.764717e-01    1.263660e-01   1.276541e-02
  4.770343e-01    1.225319e-01   1.258953e-02
  4.775969e-01    1.203377e-01   1.250848e-02
  4.781594e-01    1.209049e-01   1.257439e-02
  4.787220e-01    1.348287e-01   1.331646e-02
  4.792846e-01    1.227041e-01   1.269633e-02
  4.798472e-01    1.141005e-01   1.222528e-02
  4.804098e-01    1.187257e-01   1.245250e-02
  4.809723e-01    1.249646e-01   1.275710e-02
  4.815349e-01    1.284994e-01   1.291780e-02
  4.820975e-01    1.294866e-01   1.294960e-02
  4.826601e-01    1.261697e-01   1.278341e-02
  4.832227e-01    1.371931e-01   1.336702e-02
  4.837853e-01    1.336195e-01   1.322709e-02
  4.843478e-01    1.180925e-01   1.245809e-02
  4.849104e-01    1.266894e-01   1.293518e-02
  4.854730e-01    1.282248e-01   1.305050e-02
  4.860356e-01    1.156706e-01   1.242015e-02
  4.865982e-01    1.188516e-01   1.261816e-02
  4.871608e-01    1.212272e-01   1.281403e-02
  4.877233e-01    1.229109e-01   1.297477e-02
  4.882859e-01    1.232644e-01   1.304292e-02
  4.888485e-01    1.194339e-01   1.288317e-02
  4.894111e-01    1.292686e-01   1.348644e-02
  4.899737e-01    1.207673e-01   1.306922e-02
  4.905362e-01    1.434059e-01   1.426085e-02
  4.910988e-01    1.296688e-01   1.353751e-02
  4.916614e-01    1.066378e-01   1.229865e-02
  4.922240e-01    1.211990e-01   1.314154e-02
  4.927866e-01    1.136303e-01   1.273628e-02
  4.933492e-01    1.189041e-01   1.304412e-02
  4.939117e-01    1.233539e-01   1.333591e-02
  4.944743e-01    1.046939e-01   1.232606e-02
  4.950369e-01    1.062064e-01   1.245141e-02
  4.955995e-01    1.328243e-01   1.395508e-02
  4.961621e-01    1.302226e-01   1.386023e-02
  4.967247e-01    1.258365e-01   1.367719e-02
  4.972872e-01    1.240252e-01   1.361836e-02
  4.978498e-01    1.107630e-01   1.294580e-02
  4.984124e-01    1.179486e-01   1.350097e-02
  4.989750e-01    1.285689e-01   1.430792e-02
  4.995376e-01    1.356854e-01   1.499088e-02
  5.001001e-01    1.294727e-01   1.490961e-02
  5.006627e-01    1.116460e-01   1.406183e-02
  5.012253e-01    1.321767e-01   1.552185e-02
  5.017879e-01    1.178815e-01   1.486812e-02
  5.023505e-01    1.155566e-01   1.493621e-02
  5.029131e-01    1.209067e-01   1.549164e-02
  5.034756e-01    1.139710e-01   1.521147e-02
  5.040382e-01    1.251389e-01   1.612521e-02
  5.046008e-01    1.174551e-01   1.582264e-02
  5.051634e-01    1.028703e-01   1.501303e-02
  5.057260e-01    1.185016e-01   1.632787e-02
  5.062886e-01    1.229952e-01   1.687095e-02
  5.068511e-01    1.183875e-01   1.673014e-02
  5.074137e-01    1.199533e-01   1.701210e-02
  5.079763e-01    1.376347e-01   1.838182e-02
  5.085389e-01    1.492882e-01   1.932489e-02
  5.091015e-01    1.352619e-01   1.851884e-02
  5.096640e-01    1.048071e-01   1.647005e-02
  5.102266e-01    1.464030e-01   1.991985e-02
  5.107892e-01    1.347253e-01   1.967641e-02
  5.113518e-01    1.501640e-01   2.128265e-02
  5.119144e-01    1.417625e-01   2.114895e-02
  5.124770e-01    1.242029e-01   2.021045e-02
  5.130395e-01    1.371599e-01   2.187174e-02
  5.136021e-01    1.219187e-01   2.149902e-02
  5.141647e-01    1.302903e-01   2.310807e-02
  5.147273e-01    1.638723e-01   2.647750e-02
  5.152899e-01    1.341413e-01   2.456128e-02
  5.158525e-01    1.470901e-01   2.658738e-02
  5.164150e-01    1.621070e-01   2.899859e-02
  5.169776e-01    1.335502e-01   3.117673e-02
  5.175402e-01    1.364713e-01   4.046327e-02
  5.181028e-01    8.548223e-02   4.411791e-02
  5.186654e-01    1.057687e-01   7.534338e-02
  5.192280e-01    2.532062e-02   9.805464e-02
  5.197905e-01    0.000000e+00   0.000000e+00
  5.203531e-01    0.000000e+00   0.000000e+00
  5.209157e-01    0.000000e+00   0.000000e+00
  5.214783e-01    0.000000e+00   0.000000e+00
  5.220409e-01    0.000000e+00   0.000000e+00
  5.226034e-01    0.000000e+00   0.000000e+00
  5.231660e-01    0.000000e+00   0.000000e+00
  5.237286e-01    0.000000e+00   0.000000e+00
  5.242912e-01    0.000000e+00   0.000000e+00
  5.248538e-01    0.000000e+00   0.000000e+00
  5.254164e-01    0.000000e+00   0.000000e+00
  5.259789e-01    0.000000e+00   0.000000e+00
  5.265415e-01    0.000000e+00   0.000000e+00
  5.271041e-01    0.000000e+00   0.000000e+00
  5.276667e-01    0.000000e+00   0.000000e+00
  5.282293e-01    0.000000e+00   0.000000e+00
  5.287919e-01    0.000000e+00   0.000000e+00
  5.293544e-01    0.000000e+00   0.000000e+00
  5.299170e-01    0.000000e+00   0.000000e+00
  5.304796e-01    0.000000e+00   0.000000e+00
  5.310422e-01    0.000000e+00   0.000000e+00
  5.316048e-01    0.000000e+00   0.000000e+00
  5.321673e-01    0.000000e+00   0.000000e+00
  5.327299e-01    0.000000e+00   0.000000e+00
  5.332925e-01    0.000000e+00   0.000000e+00
  5.338551e-01    0.000000e+00   0.000000e+00
  5.344177e-01    0.000000e+00   0.000000e+00
  5.349803e-01    0.000000e+00   0.000000e+00
  5.355428e-01    0.000000e+00   0.000000e+00
  5.361054e-01    0.000000e+00   0.000000e+00
  5.366680e-01    0.000000e+00   0.000000e+00
  5.372306e-01    0.000000e+00   0.000000e+00
  5.377932e-01    0.000000e+00   0.000000e+00
  5.383558e-01    0.000000e+00   0.000000e+00
  5.389183e-01    0.000000e+00   0.000000e+00
  5.394809e-01    0.000000e+00   0.000000e+00
  5.400435e-01    0.000000e+00   0.000000e+00
  5.406061e-01    0.000000e+00   0.000000e+00
  5.411687e-01    0.000000e+00   0.000000e+00
  5.417312e-01    0.000000e+00   0.000000e+00
  5.422938e-01    0.000000e+00   0.000000e+00
  5.428564e-01    0.000000e+00   0.000000e+00
  5.434190e-01    0.000000e+00   0.000000e+00
  5.439816e-01    0.000000e+00   0.000000e+00
  5.445442e-01    0.000000e+00   0.000000e+00
  5.451067e-01    0.000000e+00   0.000000e+00
  5.456693e-01    0.000000e+00   0.000000e+00
  5.462319e-01    0.000000e+00   0.000000e+00
  5.467945e-01    0.000000e+00   0.000000e+00
  5.473571e-01    0.000000e+00   0.000000e+00
  5.479197e-01    0.000000e+00   0.000000e+00
  5.484822e-01    0.000000e+00   0.000000e+00
  5.490448e-01    0.000000e+00   0.000000e+00
  5.496074e-01    0.000000e+00   0.000000e+00
  5.501700e-01    0.000000e+00   0.000000e+00
  5.507326e-01    0.000000e+00   0.000000e+00
  5.512952e-01    0.000000e+00   0.000000e+00
  5.518577e-01    0.000000e+00   0.000000e+00
  5.524203e-01    0.000000e+00   0.000000e+00
  5.529829e-01    0.000000e+00   0.000000e+00
  5.535455e-01    0.000000e+00   0.000000e+00
  5.541081e-01    0.000000e+00   0.000000e+00
  5.546706e-01    0.000000e+00   0.000000e+00
  5.552332e-01    0.000000e+00   0.000000e+00
  5.557958e-01    0.000000e+00   0.000000e+00
  5.563584e-01    0.000000e+00   0.000000e+00
  5.569210e-01    0.000000e+00   0.000000e+00
  5.574836e-01    0.000000e+00   0.000000e+00
  5.580461e-01    0.000000e+00   0.000000e+00
  5.586087e-01    0.000000e+00   0.000000e+00
  5.591713e-01    0.000000e+00   0.000000e+00
  5.597339e-01    0.000000e+00   0.000000e+00
  5.602965e-01    0.000000e+00   0.000000e+00
  5.608591e-01    0.000000e+00   0.000000e+00
  5.614216e-01    0.000000e+00   0.000000e+00
  5.619842e-01    0.000000e+00   0.000000e+00
  5.625468e-01    0.000000e+00   0.000000e+00
  5.631094e-01    0.000000e+00   0.000000e+00
  5.636720e-01    0.000000e+00   0.000000e+00
  5.642345e-01    0.000000e+00   0.000000e+00
  5.647971e-01    0.000000e+00   0.000000e+00
  5.653597e-01    0.000000e+00   0.000000e+00
  5.659223e-01    0.000000e+00   0.000000e+00
  5.664849e-01    0.000000e+00   0.000000e+00
  5.670475e-01    0.000000e+00   0.000000e+00
